        Number	     Time[sec]	     HI_over_I	
0.000000	0.000000	-0.303366	
1.000000	8.100000	-0.302199	
2.000000	16.200001	-0.301435	
3.000000	24.299999	-0.300257	
4.000000	32.400002	-0.299298	
5.000000	40.500000	-0.298323	
6.000000	48.599998	-0.297503	
7.000000	56.700001	-0.297281	
8.000000	64.800003	-0.295568	
9.000000	72.900002	-0.294746	
10.000000	81.000000	-0.294709	
11.000000	89.099998	-0.294315	
12.000000	97.199997	-0.294066	
13.000000	105.300003	-0.294226	
14.000000	113.400002	-0.293365	
15.000000	121.500000	-0.293273	
16.000000	129.600006	-0.292372	
17.000000	137.699997	-0.292512	
18.000000	145.800003	-0.291899	
19.000000	153.899994	-0.291155	
20.000000	162.000000	-0.291692	
21.000000	170.100006	-0.291485	
22.000000	178.199997	-0.291479	
23.000000	186.300003	-0.290761	
24.000000	194.399994	-0.290185	
25.000000	202.500000	-0.289557	
26.000000	210.600006	-0.288969	
27.000000	218.699997	-0.289526	
28.000000	226.800003	-0.289150	
29.000000	237.380005	-0.288869	
30.000000	245.479996	-0.288307	
31.000000	257.220001	-0.288415	
32.000000	265.320007	-0.288030	
33.000000	273.420013	-0.287864	
34.000000	281.519989	-0.287620	
35.000000	289.619995	-0.287022	
36.000000	297.720001	-0.287140	
37.000000	305.820007	-0.286733	
38.000000	313.920013	-0.285517	
39.000000	322.019989	-0.285723	
40.000000	330.119995	-0.285157	
41.000000	338.220001	-0.285098	
42.000000	346.320007	-0.284486	
43.000000	354.420013	-0.284094	
44.000000	362.519989	-0.284086	
45.000000	370.619995	-0.283397	
46.000000	378.720001	-0.283709	
47.000000	386.820007	-0.283333	
48.000000	394.920013	-0.283953	
49.000000	403.019989	-0.283250	
50.000000	411.119995	-0.283333	
51.000000	419.220001	-0.283171	
52.000000	427.320007	-0.282676	
53.000000	435.420013	-0.282406	
54.000000	443.519989	-0.281821	
55.000000	453.570007	-0.281366	
56.000000	461.670013	-0.280922	
57.000000	469.769989	-0.280132	
58.000000	477.869995	-0.249000	
59.000000	485.970001	-0.258680	
60.000000	494.070007	0.045888	
61.000000	502.170013	-0.020071	
62.000000	510.269989	0.032108	
63.000000	518.369995	-0.033525	
64.000000	526.469971	0.015203	
65.000000	534.570007	-0.025484	
66.000000	542.669983	0.005776	
67.000000	550.770020	-0.017632	
68.000000	558.869995	-0.001887	
69.000000	566.969971	-0.011838	
70.000000	575.070007	-0.007441	
71.000000	583.169983	-0.009937	
72.000000	591.270020	-0.009074	
73.000000	599.369995	-0.007885	
74.000000	607.469971	-0.012215	
75.000000	663.489990	-0.006061	
76.000000	671.590027	-0.005991	
77.000000	679.690002	-0.005996	
78.000000	687.789978	-0.007740	
79.000000	695.890015	-0.007223	
80.000000	703.989990	-0.008538	
81.000000	712.090027	-0.008578	
82.000000	720.190002	-0.007618	
83.000000	728.289978	-0.008235	
84.000000	736.390015	-0.009211	
85.000000	744.489990	-0.009787	
86.000000	752.590027	-0.010920	
87.000000	760.690002	-0.010573	
88.000000	768.789978	-0.009401	
89.000000	776.890015	-0.005986	
90.000000	784.989990	-0.010378	
91.000000	793.090027	-0.011053	
92.000000	801.190002	-0.013198	
93.000000	809.289978	-0.007033	
94.000000	817.390015	-0.006970	
95.000000	825.489990	-0.007800	
96.000000	833.590027	-0.007538	
97.000000	841.690002	-0.006761	
98.000000	849.789978	-0.007746	
99.000000	857.890015	-0.007375	
100.000000	865.989990	-0.006550	
101.000000	874.090027	-0.007792	
102.000000	882.190002	-0.007646	
103.000000	890.289978	-0.007247	
104.000000	898.390015	-0.008547	
105.000000	906.489990	-0.009314	
106.000000	914.590027	-0.008112	
107.000000	922.690002	-0.007701	
108.000000	930.789978	-0.008216	
109.000000	938.890015	-0.008828	
110.000000	946.989990	-0.008142	
111.000000	955.090027	-0.008484	
112.000000	963.190002	-0.008687	
113.000000	971.289978	-0.007887	
114.000000	979.390015	-0.006890	
115.000000	987.489990	-0.006632	
116.000000	995.590027	-0.005317	
117.000000	1003.690002	-0.001144	
118.000000	1011.789978	0.006533	
119.000000	1019.890015	0.043102	
120.000000	1027.989990	0.148600	
121.000000	1036.089966	0.275794	
122.000000	1044.189941	0.417843	
123.000000	1052.290039	0.594180	
124.000000	1060.390015	0.719426	
125.000000	1068.489990	0.788042	
126.000000	1076.589966	0.935138	
127.000000	1084.689941	1.036710	
128.000000	1092.790039	1.170084	
129.000000	1100.890015	1.295613	
130.000000	1108.989990	1.442407	
131.000000	1117.089966	1.609111	
132.000000	1125.189941	1.703597	
133.000000	1133.290039	1.796415	
134.000000	1141.390015	1.940657	
135.000000	1149.489990	2.081662	
136.000000	1157.589966	2.226989	
137.000000	1165.689941	2.367876	
138.000000	1173.790039	2.462299	
139.000000	1181.890015	2.592478	
140.000000	1189.989990	2.758358	
141.000000	1198.089966	2.906118	
142.000000	1206.189941	3.026509	
143.000000	1214.290039	3.129460	
144.000000	1222.390015	3.257774	
145.000000	1230.489990	3.377767	
146.000000	1238.589966	3.529585	
147.000000	1246.689941	3.705724	
148.000000	1254.790039	3.873448	
149.000000	1262.890015	3.938748	
150.000000	1270.989990	4.153078	
151.000000	1279.089966	4.286763	
152.000000	1287.189941	4.398348	
153.000000	1295.290039	4.533067	
154.000000	1303.390015	4.743920	
155.000000	1311.489990	4.957399	
156.000000	1319.589966	5.078182	
157.000000	1327.689941	5.132057	
158.000000	1335.790039	5.277401	
159.000000	1343.890015	5.425468	
160.000000	1351.989990	5.565650	
161.000000	1360.089966	5.679001	
162.000000	1368.189941	5.858285	
163.000000	1376.290039	5.985556	
164.000000	1384.390015	6.171322	
165.000000	1392.489990	6.392567	
166.000000	1400.589966	6.533795	
167.000000	1408.689941	6.673357	
168.000000	1416.790039	6.897551	
169.000000	1424.890015	7.129131	
170.000000	1432.989990	7.132822	
171.000000	1441.089966	7.314106	
172.000000	1449.189941	7.577069	
173.000000	1457.290039	7.769931	
174.000000	1465.390015	7.940621	
175.000000	1473.489990	8.106474	
176.000000	1481.589966	8.356904	
177.000000	1489.689941	8.614060	
178.000000	1497.790039	8.670456	
179.000000	1505.890015	8.862551	
180.000000	1513.989990	9.128234	
181.000000	1522.089966	9.244240	
182.000000	1530.189941	9.532068	
183.000000	1538.290039	9.765048	
184.000000	1546.390015	9.969805	
185.000000	1554.489990	10.365567	
186.000000	1562.589966	10.517291	
187.000000	1570.689941	10.763609	
188.000000	1578.790039	10.905856	
189.000000	1586.890015	11.217255	
190.000000	1594.989990	11.158698	
191.000000	1603.089966	11.478208	
192.000000	1611.189941	11.721954	
193.000000	1619.290039	11.859318	
194.000000	1627.390015	11.620568	
195.000000	1635.489990	11.221941	
196.000000	1672.650024	11.311613	
197.000000	1680.750000	11.164702	
198.000000	1688.849976	11.028258	
199.000000	1696.949951	11.005922	
200.000000	1705.050049	10.781264	
201.000000	1713.150024	10.606871	
202.000000	1721.250000	10.571732	
203.000000	1729.349976	10.326324	
204.000000	1737.449951	10.156426	
205.000000	1745.550049	9.994863	
206.000000	1753.650024	9.938275	
207.000000	1761.750000	9.898175	
208.000000	1769.849976	9.896152	
209.000000	1777.949951	9.888990	
210.000000	1786.050049	9.642859	
211.000000	1794.150024	9.605941	
212.000000	1802.250000	9.472426	
213.000000	1810.349976	9.470243	
214.000000	1818.449951	9.389338	
215.000000	1826.550049	9.059827	
216.000000	1834.650024	8.991610	
217.000000	1842.750000	8.913076	
218.000000	1850.849976	8.663207	
219.000000	1858.949951	8.594235	
220.000000	1867.050049	8.416256	
221.000000	1875.150024	8.335480	
222.000000	1883.250000	8.318779	
223.000000	1891.349976	8.099862	
224.000000	1899.449951	7.849867	
225.000000	1907.550049	7.897675	
226.000000	1915.650024	7.744061	
227.000000	1923.750000	7.558358	
228.000000	1931.849976	7.486015	
229.000000	1939.949951	7.472143	
230.000000	1948.050049	7.580173	
231.000000	1956.150024	7.120208	
232.000000	1964.250000	7.104067	
233.000000	1972.349976	6.993979	
234.000000	1980.449951	6.896082	
235.000000	1988.550049	6.814747	
236.000000	1996.650024	6.703152	
237.000000	2004.750000	6.747670	
238.000000	2012.849976	6.527380	
239.000000	2020.949951	6.443356	
240.000000	2029.050049	6.384017	
241.000000	2037.150024	6.302637	
242.000000	2045.250000	6.231272	
243.000000	2053.350098	6.086775	
244.000000	2061.449951	5.964411	
245.000000	2069.550049	5.961238	
246.000000	2077.649902	5.827092	
247.000000	2085.750000	5.829144	
248.000000	2093.850098	5.768209	
249.000000	2101.949951	5.647015	
250.000000	2110.050049	5.512061	
251.000000	2118.149902	5.441603	
252.000000	2126.250000	5.342492	
253.000000	2134.350098	5.295204	
254.000000	2142.449951	5.238476	
255.000000	2150.550049	5.108409	
256.000000	2158.649902	5.044007	
257.000000	2166.750000	4.984967	
258.000000	2174.850098	5.026190	
259.000000	2182.949951	4.994869	
260.000000	2191.050049	4.944841	
261.000000	2199.149902	4.922863	
262.000000	2207.250000	4.847080	
263.000000	2215.350098	4.754816	
264.000000	2223.449951	4.691113	
265.000000	2231.550049	4.638897	
266.000000	2239.649902	4.549458	
267.000000	2247.750000	4.480483	
268.000000	2255.850098	4.480205	
269.000000	2263.949951	4.393960	
270.000000	2272.050049	4.351741	
271.000000	2280.149902	4.270404	
272.000000	2288.250000	4.230685	
273.000000	2296.350098	4.188135	
274.000000	2304.449951	4.143752	
275.000000	2312.550049	4.095608	
276.000000	2320.649902	4.039128	
277.000000	2328.750000	4.008050	
278.000000	2336.850098	3.947657	
279.000000	2344.949951	3.936317	
280.000000	2353.050049	3.857908	
281.000000	2361.149902	3.809606	
282.000000	2369.250000	3.774630	
283.000000	2377.350098	3.728409	
284.000000	2385.449951	3.685588	
285.000000	2393.550049	3.655934	
286.000000	2401.649902	3.634211	
287.000000	2409.750000	3.573097	
288.000000	2417.850098	3.531743	
289.000000	2425.949951	3.475134	
290.000000	2434.050049	3.451820	
291.000000	2442.149902	3.410134	
292.000000	2450.250000	3.358028	
293.000000	2458.350098	3.338007	
294.000000	2466.449951	3.287779	
295.000000	2474.550049	3.243995	
296.000000	2482.649902	3.260853	
297.000000	2490.750000	3.201732	
298.000000	2498.850098	3.159478	
299.000000	2506.949951	3.117844	
300.000000	2515.050049	3.082794	
301.000000	2523.149902	3.035274	
302.000000	2531.250000	3.011862	
303.000000	2539.350098	2.966074	
304.000000	2547.449951	2.947026	
305.000000	2555.550049	2.905946	
306.000000	2563.649902	2.877092	
307.000000	2571.750000	2.830361	
308.000000	2579.850098	2.805169	
309.000000	2587.949951	2.775202	
310.000000	2596.050049	2.747433	
311.000000	2604.149902	2.719887	
312.000000	2612.250000	2.669564	
313.000000	2620.350098	2.664582	
314.000000	2628.449951	2.656926	
315.000000	2636.550049	2.593480	
316.000000	2644.649902	2.574024	
317.000000	2652.750000	2.550560	
318.000000	2660.850098	2.529954	
319.000000	2668.949951	2.510591	
320.000000	2677.050049	2.473862	
321.000000	2685.149902	2.458817	
322.000000	2693.250000	2.431075	
323.000000	2701.350098	2.409496	
324.000000	2709.449951	2.373440	
325.000000	2717.550049	2.339869	
326.000000	2725.649902	2.311609	
327.000000	2733.750000	2.278597	
328.000000	2741.850098	2.254379	
329.000000	2749.949951	2.226375	
330.000000	2758.050049	2.206402	
331.000000	2766.149902	2.187421	
332.000000	2774.250000	2.161058	
333.000000	2782.350098	2.129972	
334.000000	2790.449951	2.105471	
335.000000	2798.550049	2.073040	
336.000000	2806.649902	2.052916	
337.000000	2814.750000	2.042442	
338.000000	2822.850098	2.013228	
339.000000	2830.949951	1.995690	
340.000000	2839.050049	1.976083	
341.000000	2847.149902	1.988031	
342.000000	2855.250000	1.940329	
343.000000	2863.350098	1.915357	
344.000000	2871.449951	1.899374	
345.000000	2879.550049	1.885474	
346.000000	2887.649902	1.861655	
347.000000	2895.750000	1.845189	
348.000000	2903.850098	1.833120	
349.000000	2911.949951	1.809849	
350.000000	2920.050049	1.805287	
351.000000	2928.149902	1.776824	
352.000000	2936.250000	1.749355	
353.000000	2944.350098	1.735748	
354.000000	2952.449951	1.712433	
355.000000	2960.550049	1.706249	
356.000000	2968.649902	1.686640	
357.000000	2976.750000	1.668953	
358.000000	2984.850098	1.663129	
359.000000	2992.949951	1.645773	
360.000000	3001.050049	1.625860	
361.000000	3009.149902	1.611044	
362.000000	3017.250000	1.596856	
363.000000	3025.350098	1.581401	
364.000000	3033.449951	1.571284	
365.000000	3041.550049	1.558172	
366.000000	3049.649902	1.539366	
367.000000	3063.790039	1.517554	
368.000000	3071.889893	1.496643	
369.000000	3079.989990	1.482385	
370.000000	3088.090088	1.472982	
371.000000	3096.189941	1.448417	
372.000000	3104.290039	1.438138	
373.000000	3112.389893	1.418880	
374.000000	3120.489990	1.408425	
375.000000	3128.590088	1.385010	
376.000000	3136.689941	1.381448	
377.000000	3144.790039	1.367356	
378.000000	3152.889893	1.356307	
379.000000	3160.989990	1.349865	
380.000000	3169.090088	1.327033	
381.000000	3177.189941	1.321974	
382.000000	3185.290039	1.311262	
383.000000	3193.389893	1.301506	
384.000000	3201.489990	1.291080	
385.000000	3209.590088	1.275406	
386.000000	3217.689941	1.267485	
387.000000	3225.790039	1.252806	
388.000000	3233.889893	1.242497	
389.000000	3241.989990	1.231754	
390.000000	3250.090088	1.215620	
391.000000	3258.189941	1.201804	
392.000000	3266.290039	1.196541	
393.000000	3274.389893	1.180355	
394.000000	3282.489990	1.167848	
395.000000	3290.590088	1.154945	
396.000000	3298.689941	1.147608	
397.000000	3306.790039	1.132267	
398.000000	3314.889893	1.120671	
399.000000	3322.989990	1.117593	
400.000000	3331.090088	1.107407	
401.000000	3339.189941	1.093318	
402.000000	3347.290039	1.083322	
403.000000	3355.389893	1.073663	
404.000000	3363.489990	1.062651	
405.000000	3371.590088	1.053527	
406.000000	3379.689941	1.043665	
407.000000	3387.790039	1.038613	
408.000000	3395.889893	1.025256	
409.000000	3403.989990	1.018656	
410.000000	3412.090088	1.007849	
411.000000	3420.189941	0.997021	
412.000000	3428.290039	0.987183	
413.000000	3436.389893	0.980655	
414.000000	3444.489990	0.971995	
415.000000	3452.590088	0.960806	
416.000000	3460.689941	0.952776	
417.000000	3468.790039	0.944744	
418.000000	3476.889893	0.938775	
419.000000	3484.989990	0.927265	
420.000000	3493.090088	0.922286	
421.000000	3501.189941	0.914405	
422.000000	3509.290039	0.902358	
423.000000	3517.389893	0.894818	
424.000000	3525.489990	0.883673	
425.000000	3533.590088	0.877533	
426.000000	3541.689941	0.870503	
427.000000	3549.790039	0.862227	
428.000000	3557.889893	0.853967	
429.000000	3565.989990	0.847136	
430.000000	3574.090088	0.836543	
431.000000	3582.189941	0.832990	
432.000000	3590.290039	0.823397	
433.000000	3598.389893	0.821284	
434.000000	3606.489990	0.813881	
435.000000	3614.590088	0.805728	
436.000000	3622.689941	0.796279	
437.000000	3630.790039	0.792655	
438.000000	3638.889893	0.785044	
439.000000	3646.989990	0.788077	
440.000000	3655.090088	0.773630	
441.000000	3663.189941	0.765983	
442.000000	3671.290039	0.758151	
443.000000	3679.389893	0.753114	
444.000000	3687.489990	0.746156	
445.000000	3695.590088	0.738800	
446.000000	3703.689941	0.732180	
447.000000	3711.790039	0.726238	
448.000000	3719.889893	0.722574	
449.000000	3727.989990	0.716932	
450.000000	3736.090088	0.709217	
451.000000	3744.189941	0.702316	
452.000000	3752.290039	0.701674	
453.000000	3782.750000	0.675787	
454.000000	3790.850098	0.670961	
455.000000	3798.949951	0.666505	
456.000000	3807.050049	0.657720	
457.000000	3815.149902	0.657405	
458.000000	3823.250000	0.653334	
459.000000	3831.350098	0.649987	
460.000000	3839.449951	0.645659	
461.000000	3847.550049	0.638078	
462.000000	3855.649902	0.635043	
463.000000	3863.750000	0.628825	
464.000000	3871.850098	0.624824	
465.000000	3879.949951	0.620142	
466.000000	3888.050049	0.616453	
467.000000	3896.149902	0.611204	
468.000000	3904.250000	0.602377	
469.000000	3912.350098	0.598615	
470.000000	3920.449951	0.594052	
471.000000	3928.550049	0.588190	
472.000000	3936.649902	0.583890	
473.000000	3944.750000	0.577957	
474.000000	3952.850098	0.576406	
475.000000	3960.949951	0.568538	
476.000000	3969.050049	0.562213	
477.000000	3977.149902	0.560337	
478.000000	3985.250000	0.553600	
479.000000	3993.350098	0.548982	
480.000000	4001.449951	0.544521	
481.000000	4009.550049	0.539555	
482.000000	4017.649902	0.537353	
483.000000	4025.750000	0.530436	
484.000000	4033.850098	0.527775	
485.000000	4041.949951	0.523345	
486.000000	4050.050049	0.518609	
487.000000	4058.149902	0.515511	
488.000000	4066.250000	0.512758	
489.000000	4074.350098	0.508216	
490.000000	4082.449951	0.506308	
491.000000	4090.550049	0.500144	
492.000000	4098.649902	0.497298	
493.000000	4106.750000	0.491846	
494.000000	4114.850098	0.491334	
495.000000	4122.950195	0.488118	
496.000000	4131.049805	0.484859	
497.000000	4139.149902	0.481537	
498.000000	4147.250000	0.475106	
499.000000	4155.350098	0.473701	
500.000000	4163.450195	0.469170	
501.000000	4171.549805	0.466278	
502.000000	4179.649902	0.461845	
503.000000	4187.750000	0.458104	
504.000000	4195.850098	0.455180	
505.000000	4203.950195	0.451168	
506.000000	4212.049805	0.447923	
507.000000	4220.149902	0.444919	
508.000000	4228.250000	0.442492	
509.000000	4236.350098	0.439063	
510.000000	4244.450195	0.438362	
511.000000	4252.549805	0.431705	
512.000000	4260.649902	0.428707	
513.000000	4268.750000	0.426368	
514.000000	4276.850098	0.423540	
515.000000	4284.950195	0.421079	
516.000000	4293.049805	0.418821	
517.000000	4301.149902	0.414486	
518.000000	4309.250000	0.411216	
519.000000	4317.350098	0.408532	
520.000000	4325.450195	0.404147	
521.000000	4333.549805	0.401632	
522.000000	4341.649902	0.397819	
523.000000	4349.750000	0.396901	
524.000000	4357.850098	0.391727	
525.000000	4365.950195	0.389250	
526.000000	4374.049805	0.387831	
527.000000	4382.149902	0.383525	
528.000000	4390.250000	0.381022	
529.000000	4398.350098	0.377292	
530.000000	4406.450195	0.377191	
531.000000	4414.549805	0.374057	
532.000000	4422.649902	0.371164	
533.000000	4430.750000	0.367067	
534.000000	4438.850098	0.365815	
535.000000	4446.950195	0.362955	
536.000000	4455.049805	0.362971	
537.000000	4463.149902	0.357361	
538.000000	4471.250000	0.354228	
539.000000	4479.350098	0.351953	
540.000000	4487.450195	0.348466	
541.000000	4495.549805	0.347586	
542.000000	4503.649902	0.343295	
543.000000	4511.750000	0.344001	
544.000000	4519.850098	0.341077	
545.000000	4527.950195	0.338560	
546.000000	4536.049805	0.336018	
547.000000	4544.149902	0.333893	
548.000000	4552.250000	0.331628	
549.000000	4560.350098	0.327792	
550.000000	4568.450195	0.327585	
551.000000	4576.549805	0.326124	
552.000000	4584.649902	0.322453	
553.000000	4592.750000	0.319447	
554.000000	4600.850098	0.318012	
555.000000	4608.950195	0.317756	
556.000000	4617.049805	0.315931	
557.000000	4625.149902	0.313221	
558.000000	4633.250000	0.309564	
559.000000	4641.350098	0.307590	
560.000000	4649.450195	0.306121	
561.000000	4657.549805	0.304783	
562.000000	4665.649902	0.302564	
563.000000	4673.750000	0.300368	
564.000000	4681.850098	0.298196	
565.000000	4689.950195	0.296342	
566.000000	4698.049805	0.292447	
567.000000	4706.149902	0.290313	
568.000000	4714.250000	0.289921	
569.000000	4722.350098	0.287540	
570.000000	4730.450195	0.286656	
571.000000	4738.549805	0.283482	
572.000000	4746.649902	0.282774	
573.000000	4754.750000	0.279994	
574.000000	4762.850098	0.278561	
575.000000	4770.950195	0.277807	
576.000000	4779.049805	0.274879	
577.000000	4787.149902	0.272168	
578.000000	4795.250000	0.271427	
579.000000	4803.350098	0.269588	
580.000000	4811.450195	0.266749	
581.000000	4819.549805	0.265009	
582.000000	4827.649902	0.263692	
583.000000	4835.750000	0.262630	
584.000000	4843.850098	0.261137	
585.000000	4851.950195	0.258167	
586.000000	4860.049805	0.256077	
587.000000	4868.149902	0.254946	
588.000000	4876.250000	0.251920	
589.000000	4884.350098	0.252181	
